Distance (ft),Max B (mG),Max E (kV/m)
-150.0,12.143000000000001,1.2290000000000001
-149.0,12.414,1.2889999999999999
-148.0,12.693,1.351
-147.0,12.98,1.4159999999999999
-146.0,13.275,1.484
-145.0,13.579000000000001,1.556
-144.0,13.891,1.631
-143.0,14.212,1.7090000000000001
-142.0,14.541,1.79
-141.0,14.879,1.875
-140.0,15.225,1.9630000000000001
-139.0,15.579000000000001,2.0550000000000002
-138.0,15.942,2.149
-137.0,16.312000000000001,2.2469999999999999
-136.0,16.690000000000001,2.3479999999999999
-135.0,17.074999999999999,2.4510000000000001
-134.0,17.466000000000001,2.5569999999999999
-133.0,17.863,2.665
-132.0,18.265000000000001,2.7749999999999999
-131.0,18.670999999999999,2.8860000000000001
-130.0,19.079999999999998,2.9980000000000002
-129.0,19.492000000000001,3.1110000000000002
-128.0,19.902999999999999,3.2229999999999999
-127.0,20.314,3.3340000000000001
-126.0,20.722000000000001,3.4430000000000001
-125.0,21.126999999999999,3.5510000000000002
-124.0,21.524999999999999,3.6539999999999999
-123.0,21.914000000000001,3.754
-122.0,22.294,3.8479999999999999
-121.0,22.661000000000001,3.9359999999999999
-120.0,23.013000000000002,4.0170000000000003
-119.0,23.349,4.0899999999999999
-118.0,23.664000000000001,4.1539999999999999
-117.0,23.957000000000001,4.2080000000000002
-116.0,24.225999999999999,4.2519999999999998
-115.0,24.468,4.2839999999999998
-114.0,24.681000000000001,4.3040000000000003
-113.0,24.861999999999998,4.3120000000000003
-112.0,25.010999999999999,4.306
-111.0,25.123999999999999,4.2880000000000003
-110.0,25.201000000000001,4.2569999999999997
-109.0,25.239000000000001,4.2130000000000001
-108.0,25.238,4.157
-107.0,25.196999999999999,4.0890000000000004
-106.0,25.116,4.0090000000000003
-105.0,24.994,3.9199999999999999
-104.0,24.831,3.8210000000000002
-103.0,24.628,3.714
-102.0,24.385999999999999,3.601
-101.0,24.106000000000002,3.4820000000000002
-100.0,23.791,3.3610000000000002
-99.0,23.445,3.238
-98.0,23.071000000000002,3.1150000000000002
-97.0,22.675999999999998,2.9950000000000001
-96.0,22.268000000000001,2.879
-95.0,21.859000000000002,2.77
-94.0,21.460999999999999,2.6680000000000001
-93.0,21.093,2.577
-92.0,20.773,2.496
-91.0,20.518000000000001,2.4279999999999999
-90.0,20.34,2.3730000000000002
-89.0,20.242999999999999,2.3290000000000002
-88.0,20.222999999999999,2.2970000000000002
-87.0,20.268999999999998,2.2749999999999999
-86.0,20.369,2.2610000000000001
-85.0,20.512,2.2519999999999998
-84.0,20.686,2.2469999999999999
-83.0,20.885000000000002,2.2440000000000002
-82.0,21.100000000000001,2.2400000000000002
-81.0,21.329000000000001,2.234
-80.0,21.567,2.2250000000000001
-79.0,21.812000000000001,2.2109999999999999
-78.0,22.064,2.1920000000000002
-77.0,22.321999999999999,2.1669999999999998
-76.0,22.585999999999999,2.137
-75.0,22.859999999999999,2.1019999999999999
-74.0,23.146000000000001,2.0619999999999998
-73.0,23.446999999999999,2.0179999999999998
-72.0,23.768999999999998,1.972
-71.0,24.117000000000001,1.9239999999999999
-70.0,24.501000000000001,1.8779999999999999
-69.0,24.928000000000001,1.8340000000000001
-68.0,25.41,1.796
-67.0,25.957999999999998,1.766
-66.0,26.584,1.7470000000000001
-65.0,27.297000000000001,1.742
-64.0,28.105,1.752
-63.0,29.013999999999999,1.7789999999999999
-62.0,30.021999999999998,1.8220000000000001
-61.0,31.123999999999999,1.881
-60.0,32.313000000000002,1.9550000000000001
-59.0,33.578000000000003,2.04
-58.0,34.908999999999999,2.1339999999999999
-57.0,36.295999999999999,2.2360000000000002
-56.0,37.728000000000002,2.343
-55.0,39.198,2.4529999999999998
-54.0,40.698,2.5630000000000002
-53.0,42.219999999999999,2.673
-52.0,43.759,2.7799999999999998
-51.0,45.308999999999997,2.8839999999999999
-50.0,46.863,2.9809999999999999
-49.0,48.417999999999999,3.0720000000000001
-48.0,49.966999999999999,3.1549999999999998
-47.0,51.506,3.2280000000000002
-46.0,53.027999999999999,3.2909999999999999
-45.0,54.530000000000001,3.343
-44.0,56.006999999999998,3.383
-43.0,57.451999999999998,3.411
-42.0,58.862000000000002,3.4260000000000002
-41.0,60.231999999999999,3.4279999999999999
-40.0,61.557000000000002,3.4159999999999999
-39.0,62.832999999999998,3.3919999999999999
-38.0,64.058000000000007,3.3559999999999999
-37.0,65.225999999999999,3.3079999999999998
-36.0,66.337000000000003,3.25
-35.0,67.387,3.181
-34.0,68.375,3.105
-33.0,69.299999999999997,3.0209999999999999
-32.0,70.162000000000006,2.9319999999999999
-31.0,70.959999999999994,2.839
-30.0,71.694999999999993,2.7450000000000001
-29.0,72.369,2.6499999999999999
-28.0,72.983999999999995,2.5569999999999999
-27.0,73.540999999999997,2.4670000000000001
-26.0,74.043999999999997,2.383
-25.0,74.494,2.3039999999999998
-24.0,74.896000000000001,2.2330000000000001
-23.0,75.251999999999995,2.1709999999999998
-22.0,75.563999999999993,2.1179999999999999
-21.0,75.837000000000003,2.0739999999999998
-20.0,76.070999999999998,2.0390000000000001
-19.0,76.268000000000001,2.0150000000000001
-18.0,76.430000000000007,2.0
-17.0,76.557000000000002,1.996
-16.0,76.647999999999996,2.0019999999999998
-15.0,76.703999999999994,2.0190000000000001
-14.0,76.721999999999994,2.0459999999999998
-13.0,76.698999999999998,2.085
-12.0,76.635000000000005,2.1339999999999999
-11.0,76.525000000000006,2.194
-10.0,76.367000000000004,2.2629999999999999
-9.0,76.156999999999996,2.3420000000000001
-8.0,75.891999999999996,2.427
-7.0,75.569000000000003,2.5190000000000001
-6.0,75.186000000000007,2.6139999999999999
-5.0,74.738,2.7120000000000002
-4.0,74.225999999999999,2.8100000000000001
-3.0,73.646000000000001,2.9060000000000001
-2.0,72.997,2.9980000000000002
-1.0,72.280000000000001,3.0859999999999999
0.0,71.494,3.1659999999999999
1.0,70.640000000000001,3.2370000000000001
2.0,69.718999999999994,3.2989999999999999
3.0,68.733000000000004,3.3490000000000002
4.0,67.683999999999997,3.3879999999999999
5.0,66.575000000000003,3.4140000000000001
6.0,65.411000000000001,3.4279999999999999
7.0,64.194000000000003,3.4279999999999999
8.0,62.927999999999997,3.415
9.0,61.619,3.3879999999999999
10.0,60.271000000000001,3.3490000000000002
11.0,58.889000000000003,3.298
12.0,57.478000000000002,3.2360000000000002
13.0,56.042000000000002,3.1619999999999999
14.0,54.587000000000003,3.0790000000000002
15.0,53.118000000000002,2.9870000000000001
16.0,51.640000000000001,2.887
17.0,50.156999999999996,2.7810000000000001
18.0,48.674999999999997,2.6680000000000001
19.0,47.195999999999998,2.552
20.0,45.726999999999997,2.431
21.0,44.271999999999998,2.3090000000000002
22.0,42.832999999999998,2.1850000000000001
23.0,41.417000000000002,2.0609999999999999
24.0,40.026000000000003,1.9370000000000001
25.0,38.664000000000001,1.8149999999999999
26.0,37.337000000000003,1.696
27.0,36.045999999999999,1.579
28.0,34.796999999999997,1.466
29.0,33.593000000000004,1.3580000000000001
30.0,32.436999999999998,1.254
31.0,31.332999999999998,1.1559999999999999
32.0,30.283999999999999,1.0640000000000001
33.0,29.292999999999999,0.97899999999999998
34.0,28.363,0.90100000000000002
35.0,27.495999999999999,0.83199999999999996
36.0,26.695,0.77200000000000002
37.0,25.960000000000001,0.72299999999999998
38.0,25.292999999999999,0.68600000000000005
39.0,24.692,0.66000000000000003
40.0,24.158000000000001,0.64700000000000002
41.0,23.687999999999999,0.64600000000000002
42.0,23.277999999999999,0.65400000000000003
43.0,22.925999999999998,0.66900000000000004
44.0,22.625,0.68899999999999995
45.0,22.372,0.71299999999999997
46.0,22.161000000000001,0.73899999999999999
47.0,21.984999999999999,0.76600000000000001
48.0,21.84,0.79300000000000004
49.0,21.719000000000001,0.81999999999999995
50.0,21.617999999999999,0.84599999999999997
51.0,21.530999999999999,0.87
52.0,21.454999999999998,0.89300000000000002
53.0,21.382999999999999,0.91400000000000003
54.0,21.314,0.93200000000000005
55.0,21.242000000000001,0.94699999999999995
56.0,21.164999999999999,0.95799999999999996
57.0,21.079999999999998,0.96599999999999997
58.0,20.984000000000002,0.96999999999999997
59.0,20.873999999999999,0.96999999999999997
60.0,20.75,0.96499999999999997
61.0,20.608000000000001,0.95599999999999996
62.0,20.448,0.94299999999999995
63.0,20.268999999999998,0.92500000000000004
64.0,20.071000000000002,0.90200000000000002
65.0,19.852,0.876
66.0,19.613,0.84499999999999997
67.0,19.353999999999999,0.81200000000000006
68.0,19.076000000000001,0.77500000000000002
69.0,18.777999999999999,0.73599999999999999
70.0,18.462,0.69499999999999995
71.0,18.126999999999999,0.65400000000000003
72.0,17.776,0.61199999999999999
73.0,17.407,0.57099999999999995
74.0,17.023,0.53300000000000003
75.0,16.623000000000001,0.497
76.0,16.207000000000001,0.46800000000000003
77.0,15.778,0.44600000000000001
78.0,15.334,0.434
79.0,14.875999999999999,0.433
80.0,14.406000000000001,0.443
81.0,13.922000000000001,0.46200000000000002
82.0,13.426,0.48599999999999999
83.0,12.919,0.51300000000000001
84.0,12.4,0.54200000000000004
85.0,11.872,0.57199999999999995
86.0,11.334,0.59999999999999998
87.0,10.789,0.626
88.0,10.238,0.65000000000000002
89.0,9.6820000000000004,0.67000000000000004
90.0,9.125,0.68700000000000006
91.0,8.5679999999999996,0.69899999999999995
92.0,8.0129999999999999,0.70699999999999996
93.0,7.4660000000000002,0.71099999999999997
94.0,6.9279999999999999,0.70999999999999996
95.0,6.4039999999999999,0.70399999999999996
96.0,5.899,0.69499999999999995
97.0,5.4189999999999996,0.68100000000000005
98.0,4.9690000000000003,0.66400000000000003
99.0,4.5590000000000002,0.64400000000000002
100.0,4.1989999999999998,0.622
101.0,3.9039999999999999,0.59799999999999998
102.0,3.6899999999999999,0.57299999999999995
103.0,3.5720000000000001,0.54900000000000004
104.0,3.548,0.52400000000000002
105.0,3.6040000000000001,0.502
106.0,3.7170000000000001,0.48299999999999998
107.0,3.8719999999999999,0.46700000000000003
108.0,4.0540000000000003,0.45500000000000002
109.0,4.2530000000000001,0.44900000000000001
110.0,4.4640000000000004,0.44700000000000001
111.0,4.6790000000000003,0.45000000000000001
112.0,4.8940000000000001,0.45700000000000002
113.0,5.1059999999999999,0.46800000000000003
114.0,5.3120000000000003,0.47999999999999998
115.0,5.5099999999999998,0.49399999999999999
116.0,5.6980000000000004,0.50900000000000001
117.0,5.8760000000000003,0.52400000000000002
118.0,6.0410000000000004,0.53900000000000003
119.0,6.1950000000000003,0.55300000000000005
120.0,6.3360000000000003,0.56599999999999995
121.0,6.4640000000000004,0.57799999999999996
122.0,6.5800000000000001,0.58899999999999997
123.0,6.6840000000000002,0.59799999999999998
124.0,6.7750000000000004,0.60599999999999998
125.0,6.8550000000000004,0.61299999999999999
126.0,6.923,0.61799999999999999
127.0,6.9809999999999999,0.621
128.0,7.0289999999999999,0.623
129.0,7.0670000000000002,0.624
130.0,7.0949999999999998,0.623
131.0,7.1150000000000002,0.621
132.0,7.1269999999999998,0.61899999999999999
133.0,7.1319999999999997,0.61499999999999999
134.0,7.1289999999999996,0.60999999999999999
135.0,7.1200000000000001,0.60399999999999998
136.0,7.1050000000000004,0.59699999999999998
137.0,7.085,0.58999999999999997
138.0,7.0590000000000002,0.58199999999999996
139.0,7.0289999999999999,0.57399999999999995
140.0,6.9950000000000001,0.56499999999999995
141.0,6.9569999999999999,0.55600000000000005
142.0,6.915,0.54700000000000004
143.0,6.8710000000000004,0.53700000000000003
144.0,6.8239999999999998,0.52700000000000002
145.0,6.774,0.51700000000000002
146.0,6.7229999999999999,0.50700000000000001
147.0,6.6689999999999996,0.497
148.0,6.6139999999999999,0.48699999999999999
149.0,6.5570000000000004,0.47599999999999998
150.0,6.5,0.46600000000000003
